  time (s)              T(t) (K)              P(t) (Pa)           Kinetic En. (n.u.)     Potential En. (n.u.) Total En. (n.u.)
  0.0000e+00         99.7568812808                     0        5265.32678564        -100807.428537        -95542.1017512 
  5.0000e-15         99.1077683206                     0        5231.06557165        -100604.516769        -95373.4511973 
  1.0000e-14         98.0388079392                     0        5174.64414331        -100274.264511        -95099.6203682 
  1.5000e-14         96.5689590038                     0        5097.06317976        -99822.5879973        -94725.5248176 
  2.0000e-14         94.7247227689                     0        4999.72145935        -99257.7045025        -94257.9830431 
  2.5000e-14         92.5404926614                     0        4884.43432183        -98590.2328771        -93705.7985553 
  3.0000e-14         90.0588811111                     0        4753.45091898        -97833.2859229        -93079.8350039 
  3.5000e-14          87.330915689                     0        4609.46456714        -97002.5222768        -92393.0577097 
  4.0000e-14         84.4159733076                     0        4455.60927412        -96116.1185763        -91660.5093022 
  4.5000e-14         81.3813055416                     0        4295.43468498        -95194.6180784        -90899.1833934 
  5.0000e-14         78.3010085545                     0          4132.851713        -94260.6120255        -90127.7603125 
  5.5000e-14           75.25431728                     0        3972.04250396        -93338.2177845        -89366.1752806 
  6.0000e-14         72.3231635219                     0        3817.33154871        -92452.3356121        -88635.0040634 
  6.5000e-14         69.5890336424                     0          3673.019827        -91627.6946236        -87954.6747966 
  7.0000e-14         67.1292849636                     0        3543.19038127         -90887.735746        -87344.5453647 
  7.5000e-14         65.0132091651                     0        3431.50053653        -90253.4186545        -86821.9181179 
  8.0000e-14         63.2982335935                     0        3340.98139942        -89742.0711139        -86401.0897145 
  8.5000e-14          62.026693924                     0         3273.8675142        -89366.4123822         -86092.544868 
  9.0000e-14         61.2235722728                     0        3231.47747666        -89133.8705556         -85902.393079 
  9.5000e-14         60.8954746715                     0        3214.15996366        -89046.2771964        -85832.1172328 
  1.0000e-13         61.0309469594                     0        3221.31040639        -89099.9693488        -85878.6589425 
  1.0500e-13         61.6020412003                     0        3251.45366833        -89286.2722383          -86034.81857 
  1.1000e-13         62.5668890172                     0        3302.37987001        -89592.2887545        -86289.9088845 
  1.1500e-13         63.8729432237                     0        3371.31548737        -90001.8930502        -86630.5775628 
  1.2000e-13         65.4605233213                     0        3455.11048883        -90496.8176393        -87041.7071504 
  1.2500e-13         67.2663336127                     0        3550.42402685        -91057.7330646        -87507.3090378 
  1.3000e-13         69.2266938233                     0        3653.89495531        -91665.2402448        -88011.3452894 
  1.3500e-13         71.2803084132                     0        3762.28799816        -92300.7212845        -88538.4332863 
  1.4000e-13          73.370483866                     0        3872.61078148        -92947.0194803        -89074.4086988 
  1.4500e-13         75.4467719025                     0         3982.2005649        -93588.9401741        -89606.7396092 
  1.5000e-13         77.4660662608                     0        4088.78213136        -94213.5796521        -90124.7975208 
  1.5500e-13         79.3932117106                     0        4190.49993194        -94810.4994688        -90619.9995369 
  1.6000e-13         81.2011993609                     0        4285.92839443        -95371.7691712        -91085.8407768 
  1.6500e-13         82.8710260526                     0        4374.06450188        -95891.9024224        -91517.8379205 
  1.7000e-13         84.3912915852                     0        4454.30653358        -96367.7109458        -91913.4044122 
  1.7500e-13         85.7575989561                     0        4526.42240875        -96798.0983896        -92271.6759809 
  1.8000e-13         86.9718122313                     0        4590.51051574        -97183.8129009        -92593.3023852 
  1.8500e-13         88.0412160631                     0        4646.95535011        -97527.1736104        -92880.2182603 
  1.9000e-13         88.9776117312                     0        4696.37980213        -97831.7830096        -93135.4032075 
  1.9500e-13         89.7963780145                     0        4739.59558822         -98102.234804        -93362.6392158 
  2.0000e-13         90.5155217984                     0        4777.55314042        -98343.8254256        -93566.2722852 
  2.0500e-13         91.1547429461                     0        4811.29224882         -98562.276826        -93750.9845772 
  2.1000e-13         91.7345396485                     0        4841.89484052        -98763.4780504        -93921.5832099 
  2.1500e-13         92.2753825287                     0        4870.44138756        -98953.2529039        -94082.8115163 
  2.2000e-13         92.7969862342                     0        4897.97246037        -99137.1603381        -94239.1878777 
  2.2500e-13         93.3177044634                     0        4925.45679634        -99320.3327602        -94394.8759639 
  2.3000e-13         93.8540675958                     0        4953.76689517        -99507.3553132         -94553.588418 
  2.3500e-13         94.4204717956                     0        4983.66260929        -99702.1865625        -94718.5239532 
  2.4000e-13         95.0290161753                     0         5015.7825491        -99908.1183549        -94892.3358058 
  2.4500e-13         95.6894725181                     0        5050.64248486        -100127.770305        -95077.1278203 
  2.5000e-13         96.4093623133                     0        5088.63941272         -100363.11272         -95274.473307 
  2.5500e-13         97.1941100808                     0        5130.05964746        -100615.510914        -95485.4512668 
  2.6000e-13         98.0472408835                     0        5175.08924752        -100885.783796        -95710.6945482 
  2.6500e-13         98.9705934115                     0        5223.82526188         -101174.27017        -95950.4449078 
  2.7000e-13         99.9645270867                     0        5276.28666139        -101480.897342         -96204.610681 
  2.7500e-13         101.028110729                     0        5332.42429689        -101805.248031        -96472.8237344 
  2.8000e-13         102.159289502                     0        5392.12971086        -102146.623152        -96754.4934411 
  2.8500e-13          103.35503423                     0        5455.24301858        -102504.099419        -97048.8564008 
  2.9000e-13         104.611481319                     0         5521.5602934        -102876.581649        -97355.0213557 
  2.9500e-13         105.924071855                     0        5590.84090864        -103262.849986        -97672.0090775 
  3.0000e-13         107.287695383                     0        5662.81512631        -103661.602082        -97998.7869556 
  3.0500e-13         108.696838491                     0        5737.19193977        -104071.489662        -98334.2977224 
  3.1000e-13         110.145732258                     0        5813.66685622        -104491.148316          -98677.48146 
  3.1500e-13         111.628487635                     0         5891.9290423        -104919.219018        -99027.2899761 
  3.2000e-13         113.139206031                     0        5971.66716092        -105354.360174        -99382.6930127 
  3.2500e-13         114.672055552                     0        6052.57339553        -105795.250014         -99742.676618 
  3.3000e-13         116.221311983                     0        6134.34561294        -106240.580887        -100106.235274 
  3.3500e-13         117.781375335                     0        6216.68823682        -106689.048938        -100472.360701 
  3.4000e-13          119.34678246                     0        6299.31291355        -107139.344086        -100840.031172 
  3.4500e-13         120.912237905                     0        6381.94014066         -107590.14532         -101208.20518 
  3.5000e-13         122.472676226                     0        6464.30255602        -108040.124811        -101575.822255 
  3.5500e-13         124.023352757          84211054.938        6546.14972853        -108487.961649        -101941.811921 
  3.6000e-13         125.558453251                     0        6627.17477307        -108932.034878        -102304.860105 
  3.6500e-13         127.075322958                     0        6707.23756772        -109371.406661        -102664.169093 
  3.7000e-13         128.570637973                     0        6786.16267146        -109804.863643        -103018.700971 
  3.7500e-13         130.041603029                     0         6863.8025456        -110231.332247        -103367.529701 
  3.8000e-13         131.485867057                     0        6940.03309707        -110649.850584        -103709.817487 
  3.8500e-13         132.901379202         76614827.6391        7014.74607843        -111059.570116        -104044.824037 
  3.9000e-13         134.286297562                     0        7087.84427122        -111458.730037        -104370.885766 
  3.9500e-13         135.638364588         67247305.3857        7159.20851834        -111847.986354        -104688.777835 
  4.0000e-13          136.95658376                     0        7228.78622189        -112226.421909        -104997.635687 
  4.0500e-13         138.236524468         95679387.6907        7296.34352727        -112593.127094        -105296.783566 
  4.1000e-13         139.472311859         64455341.6535        7361.57035043        -112947.147474        -105585.577124 
  4.1500e-13         140.662513896                     0        7424.39110612        -113287.845274        -105863.454168 
  4.2000e-13         141.802386605                     0        7484.55539983        -113614.348878        -106129.793478 
  4.2500e-13          142.88716684         68692387.8638        7541.81182518        -113925.619018        -106383.807193 
  4.3000e-13         143.911738979         72339588.4443        7595.89037153        -114220.531183        -106624.640811 
  4.3500e-13         144.873055083         123012150.018        7646.63016378        -114497.913197        -106851.283033 
  4.4000e-13         145.767825037         60231310.5147        7693.85754446        -114756.753861        -107062.896317 
  4.4500e-13          146.58867108         147929573.612        7737.18310354        -114995.635041        -107258.451937 
  4.5000e-13         147.331233352          109263307.46        7776.37672079        -115213.541705        -107437.164984 
  4.5500e-13         147.996986973         174377643.926         7811.5162553         -115410.11231        -107598.596055 
  4.6000e-13         148.584131554          187868465.11        7842.50667974         -115584.91685        -107742.410171 
  4.6500e-13         149.092811386         301170528.894        7869.35560993        -115737.497878        -107868.142268 
  4.7000e-13          149.52589484         105260356.969        7892.21444314        -115868.287247        -107976.072804 
  4.7500e-13         149.888386431         134606213.616        7911.34732561        -115977.994614        -108066.647289 
  4.8000e-13         150.183420058          131710384.88        7926.91966949        -116067.311136        -108140.391467 
  4.8500e-13         150.416958257         41604328.1286        7939.24618691        -116137.821721        -108198.575534 
  4.9000e-13         150.600928302         110143278.251        7948.95641834        -116192.150635        -108243.194217 
  4.9500e-13         150.745626189         162480582.564        7956.59380288        -116232.442429        -108275.848626 
  5.0000e-13         150.859045188         196295316.806        7962.58023792        -116260.930907        -108298.350669 
  5.0500e-13         150.951681873         235451089.658        7967.46974945        -116279.624103        -108312.154354 
  5.1000e-13         151.030601236         406028516.408        7971.63523888        -116290.444411        -108318.809172 
  5.1500e-13          151.10295086         228379123.884        7975.45396706        -116294.875592        -108319.421625 
  5.2000e-13         151.163662418                     0        7978.65841959        -116292.871303        -108314.212884 
  5.2500e-13         151.211620612         154333746.645        7981.18972932        -116285.846669         -108304.65694 
  5.3000e-13         151.246050015          295741233.23        7983.00696798        -116273.332304        -108290.325336 
  5.3500e-13         151.270020595         119152158.232        7984.27217329        -116256.189376        -108271.917203 
  5.4000e-13         151.280710643         95070411.3085        7984.83641101        -116234.498615        -108249.662204 
  5.4500e-13         151.282141969         150644059.133        7984.91195866        -116209.088198        -108224.176239 
  5.5000e-13         151.275820092         139114929.287        7984.57827997        -116180.674341        -108196.096061 
  5.5500e-13         151.262644538         220108473.219        7983.88285329        -116150.207405        -108166.324552 
  5.6000e-13         151.241653152         262766590.464        7982.77489457        -116117.677061        -108134.902167 
  5.6500e-13         151.211748559         106016336.574        7981.19648258        -116083.502945        -108102.306463 
  5.7000e-13         151.163977055         108452907.116        7978.67502667        -116047.451609        -108068.776583 
  5.7500e-13         151.090988853         229785662.823        7974.82259334         -116008.74779        -108033.925197 
  5.8000e-13          150.98276338         184648905.083        7969.11028079         -115967.04801        -107997.937729 
  5.8500e-13         150.839471786         55082615.6559        7961.54712268        -115922.431233         -107960.88411 
  5.9000e-13         150.660845942         266455537.808        7952.11896665        -115874.788333        -107922.669367 
  5.9500e-13         150.449665736         220514821.548        7940.97253962        -115823.843469         -107882.87093 
  6.0000e-13         150.210882763         279612375.458        7928.36919472        -115770.606577        -107842.237382 
  6.0500e-13         149.948999487         205107125.314        7914.54657907        -115715.738942        -107801.192363 
  6.1000e-13         149.673371061         265562529.752        7899.99847254        -115660.259514        -107760.261041 
  6.1500e-13         149.396821925         272666164.742        7885.40176952        -115605.770775        -107720.369005 
  6.2000e-13         149.124701949         289881960.375        7871.03884455        -115552.328404        -107681.289559 
  6.2500e-13         148.865467358         200411456.373        7857.35603069         -115500.51988        -107643.163849 
  6.3000e-13         148.620469603         396597279.437        7844.42465971        -115450.753019        -107606.328359 
  6.3500e-13            148.407136         408303183.793          7833.164573        -115404.088059        -107570.923486 
  6.4000e-13         148.220898021         197400955.391        7823.33463638        -115358.718015        -107535.383378 
  6.4500e-13         148.063320031         213757295.601        7815.01741957        -115315.448822        -107500.431402 
  6.5000e-13         147.931098565         333105590.114        7808.03856038        -115273.220529        -107465.181968 
  6.5500e-13         147.830091687         258842348.843        7802.70725678        -115232.338987         -107429.63173 
  6.6000e-13         147.752336045          391058163.16         7798.6031904        -115191.583779        -107392.980588 
  6.6500e-13         147.699820476         302209896.569        7795.83133515        -115150.793779        -107354.962444 
  6.7000e-13         147.668203108         223092323.762        7794.16252021        -115109.916167        -107315.753646 
  6.7500e-13         147.656757457         155183241.813        7793.55840055         -115068.07418         -107274.51578 
  6.8000e-13         147.667036636         281907436.228        7794.10095197        -115024.822548        -107230.721596 
  6.8500e-13         147.698974311         118448526.447        7795.78667322        -114979.807559        -107184.020886 
  6.9000e-13         147.750011916         433402807.367        7798.48051918        -114931.932181        -107133.451661 
  6.9500e-13         147.819803221         149573849.419        7802.16421519        -114881.328483        -107079.164268 
  7.0000e-13         147.896606553         161615791.686        7806.21801718        -114826.931963        -107020.713946 
  7.0500e-13         147.973148135         143930500.338        7810.25800354        -114768.463163        -106958.205159 
  7.1000e-13         148.044968073         263067517.019        7814.04877403        -114705.793344         -106891.74457 
  7.1500e-13         148.104173554         256970799.757        7817.17373345        -114639.008407        -106821.834673 
  7.2000e-13         148.141478298         43946797.4464        7819.14273715        -114568.166887         -106749.02415 
  7.2500e-13         148.164927445         104160471.925        7820.38042041         -114495.70798         -106675.32756 
  7.3000e-13         148.178063005         154555504.773        7821.07373615        -114423.371659        -106602.297923 
  7.3500e-13         148.180076866         43394684.1916        7821.18003093        -114352.402545        -106531.222514 
  7.4000e-13         148.177031099         215875918.428        7821.01927049        -114284.689781        -106463.670511 
  7.4500e-13         148.170634645         92216319.4368        7820.68165548        -114220.838777        -106400.157122 
  7.5000e-13         148.166217118          207999021.84        7820.44849139        -114161.939361         -106341.49087 
  7.5500e-13         148.168284877         126541598.214        7820.55763098        -114108.032008        -106287.474377 
  7.6000e-13         148.176591307         271799843.622         7820.9960576        -114060.070033        -106239.073976 
  7.6500e-13         148.199975636         153037464.771        7822.23031964        -114018.227886        -106195.997567 
  7.7000e-13         148.236740735          298582631.99        7824.17084001        -113982.918355        -106158.747515 
  7.7500e-13          148.29476766          114962964.83        7827.23359336        -113953.553811        -106126.320218 
  7.8000e-13         148.362442754         47437199.8753        7830.80559244        -113928.905699        -106098.100107 
  7.8500e-13         148.442661693         144298105.126        7835.03967555        -113909.333162        -106074.293487 
  7.9000e-13         148.534397014         258625832.439        7839.88161161        -113894.104467        -106054.222855 
  7.9500e-13         148.632559904                     0          7845.062805        -113881.507506        -106036.444701 
  8.0000e-13         148.736386775         27978291.2028        7850.54295231        -113872.088243        -106021.545291 
